#
# The copyright to the intellectual property of this file is held by www.climatedata.info
# Title,"Temperature, CO2 and Milankovitch cycles - Vostok"
# Source: http://www.ncdc.noaa.gov/paleo/indexice.html
# Source: http://www1.ncdc.noaa.gov/pub/data/paleo/climate_forcing/orbital_variations/berger_insolation/
#
BP,Temp
-422100,0.084
-422000,0.095
-421900,0.106
-421800,0.117
-421700,0.128
-421600,0.14
-421500,0.152
-421400,0.179
-421300,0.207
-421200,0.234
-421100,0.262
-421000,0.289
-420900,0.317
-420800,0.352
-420700,0.388
-420600,0.424
-420500,0.461
-420400,0.497
-420300,0.533
-420200,0.536
-420100,0.531
-420000,0.526
-419900,0.521
-419800,0.516
-419700,0.511
-419600,0.57
-419500,0.643
-419400,0.717
-419300,0.79
-419200,0.863
-419100,0.936
-419000,0.995
-418900,1.053
-418800,1.111
-418700,1.169
-418600,1.227
-418500,1.276
-418400,1.299
-418300,1.323
-418200,1.346
-418100,1.369
-418000,1.393
-417900,1.404
-417800,1.409
-417700,1.415
-417600,1.42
-417500,1.426
-417400,1.428
-417300,1.415
-417200,1.402
-417100,1.389
-417000,1.376
-416900,1.364
-416800,1.355
-416700,1.347
-416600,1.34
-416500,1.333
-416400,1.325
-416300,1.311
-416200,1.276
-416100,1.241
-416000,1.206
-415900,1.171
-415800,1.137
-415700,1.134
-415600,1.14
-415500,1.145
-415400,1.151
-415300,1.156
-415200,1.154
-415100,1.138
-415000,1.121
-414900,1.104
-414800,1.088
-414700,1.071
-414600,1.033
-414500,0.992
-414400,0.952
-414300,0.912
-414200,0.871
-414100,0.846
-414000,0.837
-413900,0.827
-413800,0.818
-413700,0.809
-413600,0.801
-413500,0.852
-413400,0.904
-413300,0.956
-413200,1.008
-413100,1.06
-413000,1.088
-412900,1.101
-412800,1.115
-412700,1.128
-412600,1.141
-412500,1.155
-412400,1.17
-412300,1.186
-412200,1.201
-412100,1.216
-412000,1.232
-411900,1.253
-411800,1.274
-411700,1.296
-411600,1.317
-411500,1.338
-411400,1.327
-411300,1.314
-411200,1.3
-411100,1.287
-411000,1.273
-410900,1.407
-410800,1.58
-410700,1.754
-410600,1.927
-410500,2.101
-410400,2.047
-410300,1.946
-410200,1.846
-410100,1.745
-410000,1.645
-409900,1.571
-409800,1.499
-409700,1.427
-409600,1.355
-409500,1.283
-409400,1.25
-409300,1.218
-409200,1.186
-409100,1.154
-409000,1.123
-408900,1.087
-408800,1.052
-408700,1.016
-408600,0.981
-408500,0.945
-408400,0.925
-408300,0.907
-408200,0.89
-408100,0.872
-408000,0.854
-407900,0.829
-407800,0.801
-407700,0.774
-407600,0.746
-407500,0.719
-407400,0.68
-407300,0.637
-407200,0.594
-407100,0.551
-407000,0.508
-406900,0.47
-406800,0.435
-406700,0.4
-406600,0.365
-406500,0.331
-406400,0.3
-406300,0.275
-406200,0.25
-406100,0.224
-406000,0.199
-405900,0.168
-405800,0.114
-405700,0.06
-405600,0.007
-405500,-0.047
-405400,-0.1
-405300,-0.134
-405200,-0.169
-405100,-0.203
-405000,-0.237
-404900,-0.271
-404800,-0.293
-404700,-0.31
-404600,-0.327
-404500,-0.344
-404400,-0.361
-404300,-0.388
-404200,-0.428
-404100,-0.467
-404000,-0.507
-403900,-0.546
-403800,-0.592
-403700,-0.672
-403600,-0.752
-403500,-0.831
-403400,-0.911
-403300,-0.991
-403200,-1.041
-403100,-1.081
-403000,-1.121
-402900,-1.161
-402800,-1.201
-402700,-1.232
-402600,-1.237
-402500,-1.242
-402400,-1.248
-402300,-1.253
-402200,-1.259
-402100,-1.235
-402000,-1.204
-401900,-1.173
-401800,-1.141
-401700,-1.11
-401600,-1.095
-401500,-1.11
-401400,-1.125
-401300,-1.14
-401200,-1.155
-401100,-1.17
-401000,-1.243
-400900,-1.318
-400800,-1.394
-400700,-1.469
-400600,-1.545
-400500,-1.586
-400400,-1.597
-400300,-1.608
-400200,-1.619
-400100,-1.629
-400000,-1.64
-399900,-1.642
-399800,-1.644
-399700,-1.646
-399600,-1.647
-399500,-1.649
-399400,-1.653
-399300,-1.659
-399200,-1.664
-399100,-1.67
-399000,-1.675
-398900,-1.684
-398800,-1.728
-398700,-1.772
-398600,-1.815
-398500,-1.859
-398400,-1.903
-398300,-1.943
-398200,-1.981
-398100,-2.019
-398000,-2.057
-397900,-2.095
-397800,-2.131
-397700,-2.144
-397600,-2.156
-397500,-2.169
-397400,-2.181
-397300,-2.194
-397200,-2.232
-397100,-2.293
-397000,-2.354
-396900,-2.415
-396800,-2.476
-396700,-2.536
-396600,-2.583
-396500,-2.629
-396400,-2.675
-396300,-2.72
-396200,-2.766
-396100,-2.828
-396000,-2.936
-395900,-3.044
-395800,-3.152
-395700,-3.26
-395600,-3.368
-395500,-3.487
-395400,-3.618
-395300,-3.75
-395200,-3.881
-395100,-4.013
-395000,-4.144
-394900,-4.273
-394800,-4.397
-394700,-4.521
-394600,-4.645
-394500,-4.769
-394400,-4.892
-394300,-5.016
-394200,-5.076
-394100,-5.133
-394000,-5.191
-393900,-5.248
-393800,-5.306
-393700,-5.363
-393600,-5.395
-393500,-5.382
-393400,-5.368
-393300,-5.354
-393200,-5.341
-393100,-5.327
-393000,-5.314
-392900,-5.295
-392800,-5.273
-392700,-5.252
-392600,-5.23
-392500,-5.209
-392400,-5.188
-392300,-5.181
-392200,-5.246
-392100,-5.312
-392000,-5.377
-391900,-5.442
-391800,-5.507
-391700,-5.573
-391600,-5.579
-391500,-5.542
-391400,-5.506
-391300,-5.47
-391200,-5.433
-391100,-5.397
-391000,-5.36
-390900,-5.357
-390800,-5.354
-390700,-5.351
-390600,-5.348
-390500,-5.345
-390400,-5.342
-390300,-5.348
-390200,-5.363
-390100,-5.378
-390000,-5.394
-389900,-5.409
-389800,-5.425
-389700,-5.44
-389600,-5.382
-389500,-5.324
-389400,-5.266
-389300,-5.208
-389200,-5.15
-389100,-5.093
-389000,-5.065
-388900,-5.057
-388800,-5.049
-388700,-5.041
-388600,-5.033
-388500,-5.025
-388400,-5.041
-388300,-5.101
-388200,-5.162
-388100,-5.222
-388000,-5.282
-387900,-5.342
-387800,-5.4
-387700,-5.41
-387600,-5.419
-387500,-5.429
-387400,-5.438
-387300,-5.447
-387200,-5.457
-387100,-5.48
-387000,-5.51
-386900,-5.539
-386800,-5.569
-386700,-5.599
-386600,-5.629
-386500,-5.637
-386400,-5.591
-386300,-5.546
-386200,-5.5
-386100,-5.454
-386000,-5.408
-385900,-5.363
-385800,-5.233
-385700,-5.097
-385600,-4.962
-385500,-4.827
-385400,-4.692
-385300,-4.556
-385200,-4.473
-385100,-4.397
-385000,-4.321
-384900,-4.245
-384800,-4.169
-384700,-4.084
-384600,-3.928
-384500,-3.772
-384400,-3.616
-384300,-3.46
-384200,-3.304
-384100,-3.156
-384000,-3.013
-383900,-2.87
-383800,-2.727
-383700,-2.584
-383600,-2.518
-383500,-2.561
-383400,-2.605
-383300,-2.648
-383200,-2.691
-383100,-2.733
-383000,-2.772
-382900,-2.811
-382800,-2.85
-382700,-2.89
-382600,-2.953
-382500,-3.105
-382400,-3.257
-382300,-3.409
-382200,-3.561
-382100,-3.712
-382000,-3.778
-381900,-3.838
-381800,-3.899
-381700,-3.96
-381600,-4.02
-381500,-4.075
-381400,-4.124
-381300,-4.172
-381200,-4.221
-381100,-4.27
-381000,-4.319
-380900,-4.382
-380800,-4.446
-380700,-4.51
-380600,-4.574
-380500,-4.638
-380400,-4.692
-380300,-4.727
-380200,-4.762
-380100,-4.797
-380000,-4.832
-379900,-4.867
-379800,-4.852
-379700,-4.808
-379600,-4.764
-379500,-4.72
-379400,-4.675
-379300,-4.631
-379200,-4.57
-379100,-4.509
-379000,-4.448
-378900,-4.386
-378800,-4.325
-378700,-4.244
-378600,-4.137
-378500,-4.03
-378400,-3.923
-378300,-3.816
-378200,-3.706
-378100,-3.562
-378000,-3.418
-377900,-3.275
-377800,-3.131
-377700,-2.991
-377600,-3.047
-377500,-3.104
-377400,-3.16
-377300,-3.216
-377200,-3.276
-377100,-3.432
-377000,-3.588
-376900,-3.743
-376800,-3.899
-376700,-4.054
-376600,-4.151
-376500,-4.24
-376400,-4.33
-376300,-4.42
-376200,-4.51
-376100,-4.603
-376000,-4.699
-375900,-4.795
-375800,-4.891
-375700,-4.988
-375600,-5.081
-375500,-5.113
-375400,-5.145
-375300,-5.177
-375200,-5.209
-375100,-5.241
-375000,-5.265
-374900,-5.278
-374800,-5.29
-374700,-5.302
-374600,-5.315
-374500,-5.327
-374400,-5.375
-374300,-5.433
-374200,-5.491
-374100,-5.549
-374000,-5.607
-373900,-5.664
-373800,-5.705
-373700,-5.747
-373600,-5.788
-373500,-5.83
-373400,-5.871
-373300,-5.913
-373200,-5.956
-373100,-5.999
-373000,-6.041
-372900,-6.084
-372800,-6.127
-372700,-6.183
-372600,-6.255
-372500,-6.327
-372400,-6.399
-372300,-6.471
-372200,-6.543
-372100,-6.587
-372000,-6.602
-371900,-6.617
-371800,-6.632
-371700,-6.647
-371600,-6.662
-371500,-6.598
-371400,-6.439
-371300,-6.281
-371200,-6.122
-371100,-5.963
-371000,-5.804
-370900,-5.706
-370800,-5.648
-370700,-5.591
-370600,-5.533
-370500,-5.476
-370400,-5.419
-370300,-5.384
-370200,-5.349
-370100,-5.314
-370000,-5.28
-369900,-5.245
-369800,-5.154
-369700,-5.023
-369600,-4.892
-369500,-4.761
-369400,-4.63
-369300,-4.509
-369200,-4.407
-369100,-4.305
-369000,-4.204
-368900,-4.102
-368800,-4.055
-368700,-4.141
-368600,-4.227
-368500,-4.313
-368400,-4.399
-368300,-4.489
-368200,-4.588
-368100,-4.688
-368000,-4.787
-367900,-4.886
-367800,-4.967
-367700,-4.945
-367600,-4.924
-367500,-4.903
-367400,-4.882
-367300,-4.861
-367200,-4.856
-367100,-4.852
-367000,-4.848
-366900,-4.845
-366800,-4.841
-366700,-4.887
-366600,-4.943
-366500,-4.999
-366400,-5.055
-366300,-5.111
-366200,-5.165
-366100,-5.216
-366000,-5.268
-365900,-5.319
-365800,-5.371
-365700,-5.439
-365600,-5.528
-365500,-5.618
-365400,-5.708
-365300,-5.797
-365200,-5.885
-365100,-5.945
-365000,-6.005
-364900,-6.065
-364800,-6.125
-364700,-6.185
-364600,-6.17
-364500,-6.102
-364400,-6.034
-364300,-5.966
-364200,-5.898
-364100,-5.837
-364000,-5.814
-363900,-5.792
-363800,-5.769
-363700,-5.747
-363600,-5.724
-363500,-5.791
-363400,-5.881
-363300,-5.97
-363200,-6.059
-363100,-6.148
-363000,-6.177
-362900,-6.121
-362800,-6.065
-362700,-6.01
-362600,-5.954
-362500,-5.899
-362400,-5.879
-362300,-5.858
-362200,-5.837
-362100,-5.816
-362000,-5.796
-361900,-5.852
-361800,-5.936
-361700,-6.02
-361600,-6.105
-361500,-6.189
-361400,-6.226
-361300,-6.19
-361200,-6.155
-361100,-6.119
-361000,-6.084
-360900,-6.049
-360800,-6.018
-360700,-5.988
-360600,-5.958
-360500,-5.928
-360400,-5.897
-360300,-5.877
-360200,-5.86
-360100,-5.842
-360000,-5.825
-359900,-5.808
-359800,-5.864
-359700,-5.979
-359600,-6.095
-359500,-6.21
-359400,-6.326
-359300,-6.421
-359200,-6.464
-359100,-6.507
-359000,-6.549
-358900,-6.592
-358800,-6.634
-358700,-6.6
-358600,-6.554
-358500,-6.507
-358400,-6.461
-358300,-6.415
-358200,-6.407
-358100,-6.442
-358000,-6.478
-357900,-6.513
-357800,-6.549
-357700,-6.589
-357600,-6.668
-357500,-6.747
-357400,-6.826
-357300,-6.905
-357200,-6.984
-357100,-7.038
-357000,-7.079
-356900,-7.121
-356800,-7.162
-356700,-7.204
-356600,-7.233
-356500,-7.179
-356400,-7.125
-356300,-7.07
-356200,-7.016
-356100,-6.962
-356000,-6.961
-355900,-6.995
-355800,-7.03
-355700,-7.065
-355600,-7.099
-355500,-7.136
-355400,-7.187
-355300,-7.237
-355200,-7.288
-355100,-7.338
-355000,-7.389
-354900,-7.415
-354800,-7.424
-354700,-7.433
-354600,-7.442
-354500,-7.451
-354400,-7.46
-354300,-7.504
-354200,-7.549
-354100,-7.593
-354000,-7.638
-353900,-7.682
-353800,-7.71
-353700,-7.71
-353600,-7.71
-353500,-7.71
-353400,-7.71
-353300,-7.71
-353200,-7.718
-353100,-7.728
-353000,-7.739
-352900,-7.75
-352800,-7.76
-352700,-7.768
-352600,-7.744
-352500,-7.721
-352400,-7.698
-352300,-7.675
-352200,-7.652
-352100,-7.634
-352000,-7.621
-351900,-7.608
-351800,-7.596
-351700,-7.583
-351600,-7.571
-351500,-7.582
-351400,-7.595
-351300,-7.608
-351200,-7.62
-351100,-7.633
-351000,-7.64
-350900,-7.64
-350800,-7.64
-350700,-7.64
-350600,-7.64
-350500,-7.64
-350400,-7.635
-350300,-7.629
-350200,-7.624
-350100,-7.618
-350000,-7.613
-349900,-7.586
-349800,-7.532
-349700,-7.479
-349600,-7.425
-349500,-7.371
-349400,-7.318
-349300,-7.261
-349200,-7.204
-349100,-7.147
-349000,-7.09
-348900,-7.033
-348800,-7.024
-348700,-7.03
-348600,-7.036
-348500,-7.042
-348400,-7.048
-348300,-7.036
-348200,-7.01
-348100,-6.985
-348000,-6.96
-347900,-6.935
-347800,-6.913
-347700,-6.895
-347600,-6.878
-347500,-6.86
-347400,-6.842
-347300,-6.831
-347200,-6.833
-347100,-6.835
-347000,-6.837
-346900,-6.838
-346800,-6.836
-346700,-6.82
-346600,-6.805
-346500,-6.789
-346400,-6.773
-346300,-6.756
-346200,-6.734
-346100,-6.712
-346000,-6.69
-345900,-6.667
-345800,-6.647
-345700,-6.633
-345600,-6.619
-345500,-6.605
-345400,-6.59
-345300,-6.572
-345200,-6.541
-345100,-6.51
-345000,-6.479
-344900,-6.449
-344800,-6.463
-344700,-6.546
-344600,-6.63
-344500,-6.713
-344400,-6.797
-344300,-6.832
-344200,-6.816
-344100,-6.8
-344000,-6.784
-343900,-6.768
-343800,-6.747
-343700,-6.722
-343600,-6.698
-343500,-6.673
-343400,-6.649
-343300,-6.633
-343200,-6.623
-343100,-6.613
-343000,-6.602
-342900,-6.592
-342800,-6.545
-342700,-6.489
-342600,-6.432
-342500,-6.376
-342400,-6.32
-342300,-6.307
-342200,-6.294
-342100,-6.282
-342000,-6.269
-341900,-6.263
-341800,-6.274
-341700,-6.285
-341600,-6.295
-341500,-6.306
-341400,-6.384
-341300,-6.503
-341200,-6.622
-341100,-6.742
-341000,-6.861
-340900,-6.975
-340800,-7.089
-340700,-7.202
-340600,-7.315
-340500,-7.429
-340400,-7.384
-340300,-7.321
-340200,-7.259
-340100,-7.197
-340000,-7.134
-339900,-7.101
-339800,-7.071
-339700,-7.04
-339600,-7.009
-339500,-6.984
-339400,-7.07
-339300,-7.156
-339200,-7.241
-339100,-7.327
-339000,-7.397
-338900,-7.377
-338800,-7.356
-338700,-7.336
-338600,-7.316
-338500,-7.294
-338400,-7.265
-338300,-7.237
-338200,-7.208
-338100,-7.179
-338000,-7.178
-337900,-7.231
-337800,-7.284
-337700,-7.337
-337600,-7.39
-337500,-7.409
-337400,-7.385
-337300,-7.36
-337200,-7.336
-337100,-7.311
-337000,-7.315
-336900,-7.341
-336800,-7.368
-336700,-7.395
-336600,-7.421
-336500,-7.409
-336400,-7.378
-336300,-7.348
-336200,-7.317
-336100,-7.286
-336000,-7.33
-335900,-7.392
-335800,-7.453
-335700,-7.515
-335600,-7.577
-335500,-7.636
-335400,-7.694
-335300,-7.753
-335200,-7.811
-335100,-7.87
-335000,-7.882
-334900,-7.894
-334800,-7.906
-334700,-7.918
-334600,-7.93
-334500,-7.932
-334400,-7.934
-334300,-7.936
-334200,-7.938
-334100,-7.94
-334000,-7.96
-333900,-7.98
-333800,-8,201
-333700,-8.02
-333600,-8.039
-333500,-8.003
-333400,-7.967
-333300,-7.93
-333200,-7.894
-333100,-7.853
-333000,-7.737
-332900,-7.621
-332800,-7.504
-332700,-7.388
-332600,-7.265
-332500,-7.119
-332400,-6.974
-332300,-6.828
-332200,-6.682
-332100,-6.547
-332000,-6.417
-331900,-6.287
-331800,-6.157
-331700,-6.042
-331600,-5.972
-331500,-5.901
-331400,-5.831
-331300,-5.76
-331200,-5.738
-331100,-5.717
-331000,-5.695
-330900,-5.674
-330800,-5.556
-330700,-5.418
-330600,-5.281
-330500,-5.143
-330400,-5.07
-330300,-5.016
-330200,-4.963
-330100,-4.91
-330000,-4.829
-329900,-4.741
-329800,-4.653
-329700,-4.565
-329600,-4.473
-329500,-4.379
-329400,-4.286
-329300,-4.184
-329200,-4.038
-329100,-3.892
-329000,-3.746
-328900,-3.638
-328800,-3.561
-328700,-3.485
-328600,-3.408
-328500,-3.297
-328400,-3.187
-328300,-3.076
-328200,-2.962
-328100,-2.846
-328000,-2.729
-327900,-2.633
-327800,-2.606
-327700,-2.578
-327600,-2.551
-327500,-2.508
-327400,-2.465
-327300,-2.422
-327200,-2.405
-327100,-2.399
-327000,-2.393
-326900,-2.28
-326800,-2.069
-326700,-1.859
-326600,-1.629
-326500,-1.37
-326400,-1.11
-326300,-0.854
-326200,-0.601
-326100,-0.349
-326000,-0.183
-325900,-0.072
-325800,0.038
-325700,0.264
-325600,0.504
-325500,0.779
-325400,1.144
-325300,1.51
-325200,1.639
-325100,1.702
-325000,1.783
-324900,1.894
-324800,2.006
-324700,2.154
-324600,2.302
-324500,2.442
-324400,2.58
-324300,2.697
-324200,2.792
-324100,2.857
-324000,2.848
-323900,2.848
-323800,2.917
-323700,2.987
-323600,3.057
-323500,3.127
-323400,3.117
-323300,3.089
-323200,3.08
-323100,3.08
-323000,3.107
-322900,3.155
-322800,3.182
-322700,3.187
-322600,3.124
-322500,2.949
-322400,2.824
-322300,2.838
-322200,2.837
-322100,2.743
-322000,2.65
-321900,2.433
-321800,2.217
-321700,1.987
-321600,1.755
-321500,1.557
-321400,1.383
-321300,1.245
-321200,1.194
-321100,1.143
-321000,0.838
-320900,0.52
-320800,0.274
-320700,0.086
-320600,-0.092
-320500,-0.128
-320400,-0.164
-320300,-0.167
-320200,-0.143
-320100,-0.118
-320000,-0.009
-319900,0.099
-319800,0.169
-319700,0.206
-319600,0.237
-319500,0.205
-319400,0.172
-319300,0.124
-319200,0.067
-319100,0.019
-319000,0.015
-318900,0.011
-318800,0.066
-318700,0.144
-318600,0.179
-318500,0.105
-318400,0.031
-318300,0.003
-318200,-0.018
-318100,-0.048
-318000,-0.094
-317900,-0.139
-317800,-0.25
-317700,-0.362
-317600,-0.414
-317500,-0.402
-317400,-0.389
-317300,-0.312
-317200,-0.235
-317100,-0.229
-317000,-0.282
-316900,-0.324
-316800,-0.262
-316700,-0.201
-316600,-0.18
-316500,-0.18
-316400,-0.212
-316300,-0.347
-316200,-0.482
-316100,-0.494
-316000,-0.473
-315900,-0.463
-315800,-0.471
-315700,-0.479
-315600,-0.538
-315500,-0.603
-315400,-0.697
-315300,-0.83
-315200,-0.962
-315100,-0.977
-315000,-0.985
-314900,-1.009
-314800,-1.053
-314700,-1.096
-314600,-1.18
-314500,-1.266
-314400,-1.326
-314300,-1.342
-314200,-1.357
-314100,-1.367
-314000,-1.374
-313900,-1.376
-313800,-1.36
-313700,-1.344
-313600,-1.418
-313500,-1.524
-313400,-1.623
-313300,-1.692
-313200,-1.762
-313100,-1.82
-313000,-1.87
-312900,-1.92
-312800,-2.058
-312700,-2.198
-312600,-2.298
-312500,-2.32
-312400,-2.343
-312300,-2.375
-312200,-2.412
-312100,-2.45
-312000,-2.365
-311900,-2.279
-311800,-2.233
-311700,-2.275
-311600,-2.317
-311500,-2.345
-311400,-2.368
-311300,-2.391
-311200,-2.447
-311100,-2.503
-311000,-2.571
-310900,-2.66
-310800,-2.75
-310700,-2.848
-310600,-2.95
-310500,-3.053
-310400,-3.147
-310300,-3.241
-310200,-3.324
-310100,-3.349
-310000,-3.374
-309900,-3.426
-309800,-3.532
-309700,-3.638
-309600,-3.715
-309500,-3.764
-309400,-3.813
-309300,-3.837
-309200,-3.847
-309100,-3.858
-309000,-3.884
-308900,-3.915
-308800,-3.947
-308700,-3.993
-308600,-4.042
-308500,-4.09
-308400,-4.199
-308300,-4.308
-308200,-4.416
-308100,-4.51
-308000,-4.604
-307900,-4.687
-307800,-4.65
-307700,-4.614
-307600,-4.584
-307500,-4.631
-307400,-4.677
-307300,-4.731
-307200,-4.853
-307100,-4.974
-307000,-5.091
-306900,-5.107
-306800,-5.123
-306700,-5.14
-306600,-5.266
-306500,-5.394
-306400,-5.522
-306300,-5.507
-306200,-5.469
-306100,-5.43
-306000,-5.354
-305900,-5.263
-305800,-5.173
-305700,-5.072
-305600,-4.966
-305500,-4.859
-305400,-4.712
-305300,-4.541
-305200,-4.37
-305100,-4.273
-305000,-4.206
-304900,-4.139
-304800,-4.053
-304700,-3.964
-304600,-3.871
-304500,-3.717
-304400,-3.563
-304300,-3.406
-304200,-3.244
-304100,-3.082
-304000,-2.99
-303900,-2.932
-303800,-2.859
-303700,-2.644
-303600,-2.43
-303500,-2.196
-303400,-1.948
-303300,-1.76
-303200,-1.886
-303100,-2.011
-303000,-2.116
-302900,-2.215
-302800,-2.403
-302700,-2.766
-302600,-3.128
-302500,-3.332
-302400,-3.503
-302300,-3.572
-302200,-3.232
-302100,-2.893
-302000,-2.701
-301900,-2.604
-301800,-2.561
-301700,-2.877
-301600,-3.194
-301500,-3.226
-301400,-3.069
-301300,-2.925
-301200,-3.024
-301100,-3.123
-301000,-3.129
-300900,-3.05
-300800,-2.971
-300700,-3.033
-300600,-3.096
-300500,-3.154
-300400,-3.205
-300300,-3.256
-300200,-3.194
-300100,-3.123
-300000,-3.097
-299900,-3.141
-299800,-3.185
-299700,-3.28
-299600,-3.382
-299500,-3.481
-299400,-3.574
-299300,-3.667
-299200,-3.79
-299100,-3.923
-299000,-4.03
-298900,-3.942
-298800,-3.855
-298700,-3.882
-298600,-4.03
-298500,-4.178
-298400,-4.288
-298300,-4.392
-298200,-4.485
-298100,-4.518
-298000,-4.551
-297900,-4.59
-297800,-4.638
-297700,-4.685
-297600,-4.75
-297500,-4.822
-297400,-4.895
-297300,-4.87
-297200,-4.837
-297100,-4.816
-297000,-4.856
-296900,-4.896
-296800,-4.937
